<Actel_Data_File>
    <format name="NVM File" version="01.00.00"/>
    <header>
        <die>
            M2S025
        </die>
        <family>
            SmartFusion2
        </family>
        <module>
            
        </module>
        <package>
            256 VF
        </package>
        <version>
            11.7.0.119
        </version>
    </header>
    <nvm>
        <region name="RISCV_BOOT" address="0x000000" retrieveAddressFromFile="false" size="9052" format="HEX" type="Data Storage" wordSize="8" numberWords="9052" memFile="/home/user/CoreRISCV_AXI4/M2S025-Creative-Board-master/Libero/CoreRISCV_AXI4_BaseDesign/ihx/loop_no_irq.ihx" memType="INTELHEX" memFileTimeStamp="" clientType="public" program="true">
            <read_protect/>
            6f00c0006f0000006f004003970200009382020373905230735000307350
            3030735020307350403097310000938101b217110020130101fe6f004029
            130101f823221100232421002326310023284100232a5100232c6100232e
            710023208102232291022324a1022326b1022328c102232ad102232ce102
            232ef1022320010523221105232421052326310523284105232a5105232c
            6105232e710523208107232291072324a1072326b1072328c107232ad107
            232ce107232ef10773252034f325103413060100ef00c01973101534b722
            00009382028073a0023083204100032181008321c1000322010183224101
            032381018323c1010324010283244102032581028325c102032601038326
            4103032781038327c1030328010483284104032981048329c104032a0105
            832a4105032b8105832bc105032c0106832c4106032d8106832dc106032e
            0107832e4107032f8107832fc10713010108730020302320b50067800000
            032505006780000083270500b396b600b3c6d700b3f6c600b3c6f6002320
            d50067800000032505003375c5003355b500678000009395050193d50501
            2310b5006780000003550500131505011355050167800000835705009397
            070193d70701b396b6001316060113560601b3f6c6001346f6ffb3f7c700
            b3e6f6002310d500678000000355050013150501135505013375c5003355
            b50013150501135505016780000093f5f50f2300b5006780000003450500
            1375f50f678000008347050093f7f70fb396b6001376f60fb3f6c6001346
            f6ffb3f7c700b3e6f6002300d50067800000034505001375f50f3375c500
            3355b5001375f50f67800000130101ff2326110023248100232291001304
            0500635c050293840500b707008093c7f7ffb377f5001307b0006390e702
            ef108022138504008320c100032481008324410013010101678000001306
            5000b7250060938585eb13051000ef00002c13051400ef00c03f130101fe
            232e1100930610001306c002b71500703705008013050505ef00d030b727
            0060938707ec2322f10023240100232601009305410013051000ef10c01f
            ef10c02cb707008023a6a7041305f0ff6780000083a701803385a7003717
            008013070701636ee5003717008013070701636ca70023a0a18013850700
            678000001305f0ff678000001305f0ff67800000130101ff232611001305
            2000eff09ffa8320c1001301010167800000130101ff2326110013052000
            eff0dff88320c1001301010167800000130101ff2326110013059000eff0
            1ff78320c1001301010167800000130101ff232611001305c000eff05ff5
            8320c1001301010167800000130101ff232611001305b000eff09ff38320
            c100130101016780000013051000678000001305f5ff9307100063fca700
            13079000b707008023a6e704130500006780000013051000678000001301
            01ff232611002324810013840500eff09ffc63000502b72700002328f400
            130500008320c10003248100130101016780000013059000eff01fec6ff0
            9ffe130101ff2326110013056001eff0dfea8320c1001301010167800000
            130101ff232611001305f001eff01fe98320c10013010101678000001301
            01ff23261100eff09ff5630a0500130500008320c1001301010167800000
            13059000eff0dfe56ff0dffe130101ff2326110023248100232291001384
            050093040600eff0dff16310050213059000eff01fe38320c10003248100
            83244100130101016780000013860400930504003705008013050505ef00
            d02d6ff09ffd130101ff232611001305d000eff05fdf8320c10013010101
            67800000130101ff232611001305d000eff09fdd8320c100130101016780
            0000130101ff2326110013052000eff0dfdb8320c1001301010167800000
            130101ff232611001305a000eff01fda8320c10013010101678000001301
            01fe232e1100232c8100232a910023282101232631019389050013090600
            eff01fe5630a0506930400006f0080009384140063f22405338499001306
            1000930504003705008013050505ef00100e034704009307a000e31cf7fc
            13061000b7250060938585ec3705008013050505ef00d00b6ff0dffb1305
            09008320c1010324810183244101032901018329c1001301010267800000
            13059000eff05fcf6ff0dffd130101fe232e1100232c8100232a91002328
            2101130905009384050013062000b72500609385c5eceff05ff313048000
            6f0000029387770393f7f70fa307f100130610009305f10013050900eff0
            1ff1630c04021304f4ff1374f40f131724009307f000b397e700b3f79700
            b3d7e70093f7f70f13079000e36ef7fa9387070393f7f70f6ff09ffb8320
            c1010324810183244101032901011301010267800000130101ff23261100
            23248100130405001347f5ffb757007023a0e70a1306d001b72500609385
            05ed13052000eff01fe99305040013052000eff09ff26f000000130101ff
            2326110023248100232291002320210113090500938405002320b5002322
            c500130400006f00c0019305000013850400eff05fad9384440013041400
            1374f40f9307f001e3f287fe8327490013071000638ce702638e07041307
            2000639ae700032509009305f0ff13050508eff0df9e8320c10003248100
            8324410003290100130101016780000003250900370401009305f4ff1305
            0508eff0df9f032509009305f4ff13054508eff0df9e6ff05ffc03250900
            9305f00f13050508eff09fa4032509009305f00f13054508eff09fa30325
            09009305f00f13058508eff09fa2032509009305f00f1305c508eff09fa1
            6ff01ff89307f00163f4b70067800000130101ff23261100032705001395
            2500930506003305a700eff01f948320c100130101016ff09ffd130101ff
            232611002324810023229100130405009384050083274500130710006388
            e702638a0704130720006398e700032505001305050aeff09f8f8320c100
            03248100832441001301010167800000032505009395050193d505011305
            050aeff0df900325040093d504011305450aeff0df8f6ff09ffc03250500
            93f5f50f1305050aeff09f950325040093d5840093f5f50f1305450aeff0
            5f940325040093d5040193f5f50f1305850aeff01f930325040093d58401
            1305c50aeff01f926ff0dff7130101ff2326110023248100232291009304
            050083274500130710006388e702638a070413072000639ee70803250500
            13050509eff01f848320c100032481008324410013010101678000000325
            050013050509eff05f861304050003a5040013054509eff05f8513150501
            3365a4006ff09ffc0325050013050509eff09f8a1304050003a504001305
            4509eff09f89131585003364a40003a5040013058509eff05f8813150501
            3364a40003a504001305c509eff01f87131585013365a4006ff09ff71305
            00006ff01ff7130101ff2326110023248100232291009304050083274500
            130710006388e702638a070413072000639ee708032505001305050aeff0
            4ff78320c10003248100832441001301010167800000032505001305050a
            eff08ff91304050003a504001305450aeff08ff8131505013365a4006ff0
            9ffc032505001305050aeff00ff71304050003a504001305450aeff00ff6
            131585003364a40003a504001305850aeff0cff4131505013364a40003a5
            04001305c50aeff08ff3131585013365a4006ff09ff7130500006ff01ff7
            130101ff2326110023248100232291002320210193040500138405001309
            060083274500130710006382e7066382070c130720006398e70203250500
            1305050aeff0cfe9631c090293051000b395850093c5f5ffb375b50003a5
            04001305050aeff04fe78320c10003248100832441000329010013010101
            6780000093051000b3958500b365b5006ff01ffd8324050093d745009397
            2700b384f4009384040a13850400eff0cfe7631609021374f40093051000
            b395850093c5f5ffb3f5a5009395050193d5050113850400eff04fe46ff0
            5ff91374f40093051000b3958500b3e5a5009395050193d505016ff0dffd
            8324050093d7350093972700b384f4009384040a13850400eff04fe86314
            09021374740093051000b395850093c5f5ffb3f5a50093f5f50f13850400
            eff04fe56ff05ff3137474009305100033948500b365a40093f5f50f6ff0
            1ffe130101ff232611002324810023229100930405001384050003250500
            930710006302f602630a0604930720006300f6088320c100032481008324
            410013010101678000001306100013850400eff09fe683a7040013142400
            3384870013050400eff00fde9365450093f5f50f13050400eff04fdc6ff0
            dffb1306000013850400eff05fe383a70400131424003384870013050400
            eff0cfda9365450093f5f50f13050400eff00fd96ff09ff8139425003304
            850013050400eff08fd89375b5ff13050400eff00fd76ff09ff603250500
            9307f00163f4b70067800000130101ff2326110023248100939525003304
            b50013050400eff0cfd49365850093f5f50f13050400eff00fd38320c100
            03248100130101016ff05ffc032505009307f00163f4b700678000001301
            01ff2326110023248100939525003304b50013050400eff00fd0937575ff
            13050400eff08fce8320c10003248100130101016ff09ffc130101ff2326
            110023248100232291001304050013071000b314b70083274500638ae702
            638a070413072000639ae700032505009385040013050508eff0cfbe8320
            c10003248100832441001301010167800000032505009385040013050508
            eff04fc00325040093d5040113054508eff04fbf6ff0dffc032505009385
            040013050508eff00fc50325040093d5840013054508eff00fc403250400
            93d5040113058508eff00fc30325040093d584011305c508eff00fc26ff0
            9ff8630a05009307700063e6d700b72700006364f60067800000130101fd
            23261102232481022322910223202103232e310113890600930406009389
            0500130405009375f60f13858900eff00fbd13d654401376867fb365c900
            1385c900eff0cfbb2320340113850901eff0cfbb137525006f0040020325
            040013054500eff08fbaa307a1000325040013050501eff08fb913752500
            e31005fe230204008320c1020324810283244102032901028329c1011301
            01036ff01ff663000508638e050663080602130101fe232e1100232c8100
            232a91002328210123263101130906009389050013040500930400006f00
            0003678000000325040013050501eff08fb213751500e30805feb3879900
            83c5070003250400eff04fb093841400e3ec24fd8320c101032481018324
            4101032901018329c1001301010267800000130101fe232e1100232c8100
            232a91002328210123263101630205086384050863140602130400001305
            04008320c1010324810183244101032901018329c1001301010267800000
            9309060013890500930405000325050013050501eff0cfa8137515006304
            050413040000b307890083c5070003a50400eff04fa61304140003a50400
            13050501eff00fa613751500e30c05f8e36c34fd6ff01ff9130400006ff0
            9ff8130400006ff01ff8130400006ff09ff7130101fe232e1100232c8100
            232a91002328210123263101232441016302050a6384050a631606029304
            0000138504008320c1010324810183244101032901018329c100032a8100
            130101026780000093090600138a0500130405000325050013050501eff0
            0f9d83474400b367f5002302f40013752500930400006f00800333099a00
            0325040013054500eff08f9a2300a900938414000325040013050501eff0
            4f9983474400b367f5002302f40013752500e30c05f6e3e434fd6ff01ff7
            930400006ff09ff6930400006ff01ff6630e050663860502130101fe232e
            1100232c8100232a91002328210123263101938905001304050093040000
            6f00c002678000000325040013050501eff08f9213751500e30805fe8345
            090003250400eff08f90938414003389990083470900e39a07fc8320c101
            0324810183244101032901018329c1001301010267800000630e05008347
            450093d7270093f777002302050013850700678000009307f00f6ff05fff
            130101fe232e1100232c8100232a91002328210123263101232441011384
            050013090600138a0600930907002320b500938485009306000013062000
            9305100013850400efe05ffd93060000130610009305000013850400efe0
            1ffc9305100013050401efe05ffa93050a001305c400efe09ff993850900
            13050400efe0dff8630c090293061000130640009305200013850400efe0
            5ff88320c1010324810183244101032901018329c100032a810013010102
            6780000093060000130640009305200013850400efe01ff56ff0dffc1301
            01ff232611000325050093061000138606009305000013058500efe0dff2
            8320c1001301010167800000130101ff2326110003250500930600001306
            10009305000013058500efe01ff08320c1001301010167800000130101ff
            232611000325050093061000130620009385060013058500efe05fed8320
            c1001301010167800000130101ff23261100032505009305100013050501
            efe01fea8320c1001301010167800000130101ff23261100032505001305
            4500efe09fe88320c1001301010167800000130101ff2326110003250500
            efe05fe68320c1001301010167800000930705006f00c000238007009387
            17003307b500e3eae7fe67800000130101ff232611002324810023229100
            2320210113040500930406002320b5002322c4002324d500732940f11315
            79003385a5009305860093d53500b72700003305f500eff01ffa93851400
            9395250003250400eff01ff9832704001319c900b387270137072000b387
            e70023a007008320c1000324810083244100032901001301010167800000
            f32740f1032705009397c700b307f70037072000b387e70023a0b7006780
            0000f32740f10327050093977700b307f70013d73500b387e70037270000
            b387e70003c707009376f70f93f57500130710003317b7003367d7001377
            f70f2380e70067800000f32740f10327050093977700b307f70013d73500
            b387e70037270000b387e70003c707009376f70f93f57500130710003317
            b7001347f7ff3377d7002380e7006780000083278500638a070083270500
            93952500b385b70023a0c50067800000f32740f1032705009397c700b307
            f7003707200013074700b387e70003a5070067800000f32740f103270500
            9397c700b307f7003707200013074700b387e70023a0b700678000001301
            01ff232611003705008013050508eff09ffa63080500930725fe13071000
            6360f702930505003705008013050508eff0dffa8320c100130101016780
            00001305a500eff04f9c130101fe232e1100232c8100930600001306f001
            b70500403705008013050508eff05fe013062000b7250070370500801305
            0507eff0cf9c13062000b75500703705008013058506eff08f9b83a58180
            3705008013050505eff09fb5b717000093870780f3b74730f37704306f00
            40021344f4ff1374040fb707008083a5c705b365b4003705008013058506
            eff00faa3705008013050507eff08fb513040500130610009305f1003705
            008013050505eff01fa31375f50fe30c05fa130610009305f10037050080
            13050505eff0df8d6ff01ffa130101ff9305000023248100232611001304
            0500ef00c00103a5c1808327c50363840700e780070013050400eff00f8c
            130101fc232e710183abc18023206103370b000023282103232441032322
            5103232c8101232a9101232e1102232c8102232a9102232631032328a101
            2326b101930a050013890500138c8b14130a1000930cf0ff130b0b0083a9
            8b1463800906930d0c0003a44900931424001304f4ffb3849900634e0400
            6300090883a74410630cf9061304f4ff9384c4ffe31694ff63060b0283a7
            4900639a070c83a70900638e07001385090023a0fd0017f3ff9fe700c394
            83a90d00e39609fa8320c1030324810383244103032901038329c102032a
            8102832a4102032b0102832bc101032c8101832c4101032d0101832dc100
            130101046780000083a7490003a744009387f7ff638a870423a20400e30c
            07f683a78918b3168a0003ad4900b3f7f6006388070283a7c918b3f6f600
            639a060283a5440813850a00e700070083a74900e39ca7f183a70d00e38e
            37f36ff0dff0e70007006ff09ffe23a289006ff01ffb03a54408e7000700
            6ff05ffd938d090083a90900e39809ee6ff05ff41000000000000000017a
            5200017c01011b0d02001000000018000000c0e9ffff0800000000000000
            100000002c000000b4e9ffff08000000000000001000000040000000a8e9
            ffff1c000000000000001000000054000000b0e9ffff1000000000000000
            1000000068000000ace9ffff1000000000000000100000007c000000a8e9
            ffff10000000000000001000000090000000a4e9ffff3000000000000000
            10000000a4000000c0e9ffff200000000000000010000000b8000000cce9
            ffff0c0000000000000010000000cc000000c4e9ffff0c00000000000000
            10000000e0000000bce9ffff280000000000000010000000f4000000d0e9
            ffff18000000000000001800000008010000d4e9ffff6800000000440e10
            4c81018802890300140000002401000020eaffff4400000000440e204481
            0100100000003c0100004ceaffff10000000000000001000000050010000
            48eaffff3c00000000000000140000006401000070eaffff1c0000000044
            0e1044810100140000007c01000074eaffff1c00000000440e1044810100
            140000009401000078eaffff1c00000000440e104481010014000000ac01
            00007ceaffff1c00000000440e104481010014000000c401000080eaffff
            1c00000000440e104481010010000000dc01000084eaffff080000000000
            000010000000f001000078eaffff28000000000000001800000004020000
            8ceaffff4000000000440e1048810188020000001400000020020000b0ea
            ffff1c00000000440e10448101001400000038020000b4eaffff1c000000
            00440e10448101001400000050020000b8eaffff2c00000000440e104481
            01001800000068020000cceaffff5400000000440e104c81018802890300
            140000008402000004ebffff1c00000000440e1044810100140000009c02
            000008ebffff1c00000000440e104481010014000000b40200000cebffff
            1c00000000440e104481010014000000cc02000010ebffff1c0000000044
            0e10448101001c000000e402000014ebffffa400000000440e2054810188
            02890392049305001c0000000403000098ebffffa000000000440e205081
            01880289039204000000180000002403000018ecffff4000000000440e10
            48810188020000001c000000400300003cecfffff800000000440e105081
            01880289039204000000140000006003000014edffff3400000000500e10
            44810100180000007803000030edffffc400000000440e104c8101880289
            03001800000094030000d8edffffcc00000000440e104c81018802890300
            18000000b003000088eeffffcc00000000440e104c810188028903001c00
            0000cc03000038efffff4c01000000440e10508101880289039204000000
            18000000ec03000064f0ffffcc00000000440e104c810188028903001800
            00000804000014f1ffff4c00000000540e10488101880200000018000000
            2404000044f1ffff4800000000540e104881018802000000180000004004
            000070f1ffffbc00000000440e104c810188028903001c0000005c040000
            10f2ffffb8000000005c0e305481018802890392049305003c0000007c04
            0000a8f2ffff8400000000500e205481018802890392049305540e00c1c8
            c9d2d3440e2081018802890392049305024c0e00c1c8c9d2d30000001c00
            0000bc040000ecf2ffffb400000000440e20548101880289039204930500
            20000000dc04000080f3ffffd000000000440e2058810188028903920493
            0594060000003c000000000500002cf4ffff80000000004c0e2054810188
            02890392049305500e00c1c8c9d2d3440e20810188028903920493050250
            0e00c1c8c9d2d300000010000000400500006cf4ffff2400000000000000
            20000000540500007cf4ffffd000000000440e2058810188028903920493
            059406000000140000007805000028f5ffff2c00000000440e1044810100
            14000000900500003cf5ffff2c00000000440e104481010014000000a805
            000050f5ffff2c00000000440e104481010014000000c005000064f5ffff
            2400000000440e104481010014000000d805000070f5ffff200000000044
            0e104481010014000000f005000078f5ffff1c00000000440e1044810100
            10000000080600007cf5ffff1c000000000000001c0000001c06000084f5
            ffff8800000000440e10508101880289039204000000100000003c060000
            ecf5ffff20000000000000001000000050060000f8f5ffff440000000000
            0000100000006406000028f6ffff44000000000000001000000078060000
            58f6ffff1c00000000000000100000008c06000060f6ffff240000000000
            000010000000a006000070f6ffff240000000000000014000000b4060000
            80f6ffff4800000000440e104481010018000000cc060000b0f6ffffd400
            000000440e20488101880200000018000000e806000068f7ffff30000000
            00440e104c8802810100000030000000040700007cf7ffff7c0100000044
            0e4048970948960870920494069507980a990b81018802890393059a0c9b
            0d000000747261700a00000068656c6c6f0000000d000000307800000a50
            726f67616d2068617320657869746564207769746820636f64653a000000
            0d0a524953432d56206563686f20696e206c6f6f702e204e6f20696e7465
            7272757074732e2121210d0a000043000000000000000c22006074220060
            dc2200600000000000000000000000000000000000000000000000000000
            000000000000000000001c1f006000000000000000000000000000000000
            000000000000000000000000000000000000000000000000000000000000
            000000000000000000000000000000000000000000000000000000000000
            000000000000000000000000000000000000000000000000000000000000
            00000000000001000000000000000e33cdab34126de6ecde05000b000000
            000000000000000000000000000000000000000000000000000000000000
            000000000000000000000000000000000000000000000000000000000000
            000000000000000000000000000000000000000000000000000000000000
            000000000000000000000000000000000000000000000000000000000000
            000000000000000000000000000000000000000000000000000000000000
            000000000000000000000000000000000000000000000000000000000000
            000000000000000000000000000000000000000000000000000000000000
            000000000000000000000000000000000000000000000000000000000000
            000000000000000000000000000000000000000000000000000000000000
            000000000000000000000000000000000000000000000000000000000000
            000000000000000000000000000000000000000000000000000000000000
            000000000000000000000000000000000000000000000000000000000000
            000000000000000000000000000000000000000000000000000000000000
            000000000000000000000000000000000000000000000000000000000000
            000000000000000000000000000000000000000000000000000000000000
            000000000000000000000000000000000000000000000000000000000000
            000000000000000000000000000000000000000000000000000000000000
            000000000000000000000000000000000000000000000000000000000000
            000000000000000000000000000000000000000000000000000000000000
            000000000000000000000000000000000000000000000000000000000000
            000000000000000000000000000000000000000000000000000000000000
            000000000000000000000000000000000000000000000000000000000000
            000000000000000000000000000000000000000000000000000000000000
            000000000000000000000000000000000000000000000000000000000000
            000000000000000000000000000000000000000000000000000000000000
            000000000000000000000000000000000000000000000000000000000000
            000000000000000000000000000000000000000000000000000000000000
            000000000000000000000000000000000000000000000000000000000000
            000000000000000000000000000000000000000000000000000000000000
            00001010008048000080f01e0060201f0060201f0060
            <crc>
                8b4c
            </crc>
        </region>
        <region name="M3_BOOT" address="0x078000" retrieveAddressFromFile="false" size="3456" format="HEX" type="Data Storage" wordSize="8" numberWords="3456" memFile="/home/user/CoreRISCV_AXI4/M2S025-Creative-Board-master/Libero/CoreRISCV_AXI4_BaseDesign/hex/M3-Disable_M2S025-FutureCreativeBoard-DDR.hex" memType="INTELHEX" memFileTimeStamp="" clientType="public" program="true">
            <read_protect/>
            00000120910100007f030000810300008303000085030000870300000000
            0000000000000000000000000000890300008b030000000000008d030000
            8f03000091030000930300009503000097030000990300009b0300009d03
            00009f030000a1030000a3030000a5030000a7030000a9030000ab030000
            ad030000af030000b1030000b3030000b5030000b7030000b9030000bb03
            0000bd030000bf030000c1030000c3030000c5030000c7030000c9030000
            cb030000cd030000cf030000d1030000d3030000d5030000d7030000d903
            0000db030000dd030000df030000e1030000e3030000e5030000e7030000
            e9030000eb030000ed030000ef030000f1030000f3030000f5030000f703
            0000f9030000fb030000fd030000ff030000010400000304000005040000
            07040000090400000b0400000d0400000f04000011040000130400001504
            000017040000190400001b0400001d0400001f0400002104000023040000
            2504000027040000290400002b0400002d0400002f040000310400003304
            000000000000000000004ff0000bdff8be020068dff8b612096801f00301
            00f01c00142801d14bf0020b002901d04bf0010bbbf1000f05d0a748a749
            dff8722200f09ff8a64880470bf0020abaf1000f0cd0dff86e02dff86e12
            02680b680fb44ff000024ff0ff0302600b609d4800220123022808d1dff8
            3e120a60dff842120a60dff836120b60012808d1dff82e120a60dff82a12
            0a60dff81e120b609148002809d191489149924a00f032f891489249924a
            00f02df892489249934a00f028f892489349dff8e62100f05af8bbf1000f
            12d090489049dff8da2100f051f80bf0020abaf1000f07d00fbc02600b60
            00bfaff30080aff30080dff820020ff2030e00474ff000004ff00001dff8
            14f2fee72de9f841884225d0b2eb010200d5fee740ea010313f0030302d0
            00f01df819e04ff0000390461211f7d09a421cbff0c8f0c103f10103f8d1
            08f00f08b8f1000f08d004780c7000f1010001f10101b8f10108f6d1bde8
            f88108b54ff0000303780b7000f1010001f10101013af7d108bd884237d0
            00f00306002e14d04ff00405a5eb06044ff0080707fb06f8914669fa08f9
            002c07d080f8009069fa07f900f10100013cf5e74ff000060f46091a8846
            0911914614461546b14206d018bfa0e8340206f10106b142f8d108f00f08
            b8f1000f07d002704fea322200f10100b8f10108f4e77047fee7fee7fee7
            fee7fee7fee7fee7fee7fee7fee7fee7fee7fee7fee7fee7fee7fee7fee7
            fee7fee7fee7fee7fee7fee7fee7fee7fee7fee7fee7fee7fee7fee7fee7
            fee7fee7fee7fee7fee7fee7fee7fee7fee7fee7fee7fee7fee7fee7fee7
            fee7fee7fee7fee7fee7fee7fee7fee7fee7fee7fee7fee7fee7fee7fee7
            fee7fee7fee7fee7fee7fee7fee7fee7fee7fee7fee7fee7fee7fee7fee7
            fee7fee7fee7fee7fee7fee7fee7fee7fee7fee7fee7fee7fee770470000
            0000a2a2a2a2008003400880034010800340308003403480034038800340
            18080240000000f0002000000120ad040000000000000100000000000060
            0000000090010000c0060060c00600005009000050090060000000203004
            002030040020500400205004002000f00020bd070000790700004ff60202
            38b53a4bd3f84c11914262d0384a536943f400735361354b996861b1fff7
            b2ff324a936c23f480339364324b1a6842f003021a6049e0304b30481b68
            30f8112043f82120013139292c4af7d102f1700003f5077103f5487430f8
            025f41f8045ba142f9d1b2f8f410c3f80014b2f8f610c3f80414b2f8f810
            c3f80814b2f8fa10c3f80c14b2f8fc10c3f81014b2f8fe10c3f81414b2f8
            0011c3f81814b2f80211c3f81c14b2f80411c3f84014b2f80611b2f80821
            c3f84414c3f8482401221a60d3f8e420002afbd0a8e75a68d207fcd538bd
            d3f8982042f48072c3f89820d3f8982022f08062c3f898208fe700800340
            00ed00e000200240bc060000b00500000000000008119002020000000100
            9f0900003333ffff7777ff0f010000420800520944000000000080026500
            e5010200280078012300330d040000000033000000000c04000000000000
            020000008020f8800700f880070000020000000004000300400000000000
            000000000903010000000000000080000000000003000000000000000000
            00000b000000000000000000800004200001080000000000000000000000
            010000000000000000000000504001051450000008001800000005000000
            000000000000000000000000000050000105105000000000000000000000
            000043000000030001000100000000000000010000000000000000000000
            00000000000000000000000000000008024010b5054c237833b9044b13b1
            0448aff300800123237010bd300400200000000020090000084b10b51bb1
            08490848aff300800848036803b910bd074b002bfbd0bde81040184700bf
            0000000034040020200900000000002000000000144b10b59a6c144c42f4
            80129a649a6c012042f0f0729a6400221357013203f01f015b099b0003f1
            604300fa01f103f56143202ac3f88010c3f88011edd1054b9a6c22f0f072
            9a649a6c22f480129a6410bd00bf00800340f808000007b5fff7cfff0d4b
            4ff05532c3f8882072b630bf4ff0aa32c3f88820084a1168c9090191019a
            1ab1019a013a0192f9e7d3f88820d243c3f88820f2e70030014004000020
            70b50f4e0f4d761bb61018bf002405d0013455f8043b9847a642f9d10a4e
            0b4d00f0a0f8761bb61018bf002406d0013455f8043b9847a642f9d170bd
            70bd00bf38090000380900004009000038090000024b13b1024800f005b8
            7047000000002d080000002301461a46184600f014b838b5074d074c2c1b
            a41005d0013c55f8043d9847002cf9d1bde8384000f070b8440900004009
            00002de9f047254c064625688846d5f8484192469946c4b360681f2817dc
            411c76b104eb8003c3f888a0d4f88851012282401543022ec4f88851c3f8
            08911ed0831c6160002044f82380bde8f087144b03b34ff4c870aff30080
            0446d0b1d5f84831002784e888003846c5f848410121c4f88871c4f88c71
            002ee1d0d1e7d4f88c311a43c4f88c21dae705f5a674c5f84841c1e74ff0
            ff30bde8f08700bf1c0900000000000032333435363738393a3b3c3d3e3f
            404142434445464748494a4b4c4d4e4f50514300000008000020f8b500bf
            f8bc08bc9e467047f8b500bff8bc08bc9e4670470d080000e5060000c106
            000000000000000000000000000000000000c07af20400000000f4020020
            5c030020c403002000000000000000000000000000000000000000000000
            000000000000000000000000000018090000000000000000000000000000
            000000000000000000000000000000000000000000000000000000000000
            000000000000000000000000000000000000000000000000000000000000
            000000000000000000000000000000000000000000000000000000000000
            0000000000000000000001000000000000000e33cdab34126de6ecde0500
            0b0000000000000000000000000000000000000000000000000000000000
            000000000000000000000000000000000000000000000000000000000000
            000000000000000000000000000000000000000000000000000000000000
            000000000000000000000000000000000000000000000000000000000000
            000000000000000000000000000000000000000000000000000000000000
            000000000000000000000000000000000000000000000000000000000000
            000000000000000000000000000000000000000000000000000000000000
            000000000000000000000000000000000000000000000000000000000000
            000000000000000000000000000000000000000000000000000000000000
            000000000000000000000000000000000000000000000000000000000000
            000000000000000000000000000000000000000000000000000000000000
            000000000000000000000000000000000000000000000000000000000000
            000000000000000000000000000000000000000000000000000000000000
            000000000000000000000000000000000000000000000000000000000000
            000000000000000000000000000000000000000000000000000000000000
            000000000000000000000000000000000000000000000000000000000000
            000000000000000000000000000000000000000000000000000000000000
            000000000000000000000000000000000000000000000000000000000000
            000000000000000000000000000000000000000000000000000000000000
            000000000000000000000000000000000000000000000000000000000000
            000000000000000000000000000000000000000000000000000000000000
            000000000000000000000000000000000000000000000000000000000000
            000000000000000000000000000000000000000000000000000000000000
            000000000000000000000000000000000000000000000000000000000000
            000000000000000000000000000000000000000000000000000000000000
            000000000000000000000000000000000000000000000000000000000000
            000000000000000000000000000000000000000000000000000000000000
            000000000000000000000000000000000000000000000000000000000000
            000000000000000000000000000000000000000000000000000000000000
            000000000000
            <crc>
                2dfd
            </crc>
        </region>
    </nvm>
</Actel_Data_File>
