<Actel_Data_File>
    <format name="NVM File" version="01.00.00"/>
    <header>
        <die>
            M2S025
        </die>
        <family>
            SmartFusion2
        </family>
        <module>
            
        </module>
        <package>
            256 VF
        </package>
        <version>
            11.9.0.4
        </version>
    </header>
    <nvm>
        <region name="RISCV_BOOT" address="0x000000" retrieveAddressFromFile="false" size="7008" format="HEX" type="Data Storage" wordSize="8" numberWords="7008" memFile="C:\Users\ciaran.lappin\Downloads\M2S025-Creative-Board-master\Modify_The_FPGA_Design\MIV_RV32IMA_L1_AHB_BaseDesign\hex\miv-rv32im-interrupt-blinky.hex" memType="INTELHEX" memFileTimeStamp="" clientType="public" program="true">
            6f00c0006f0000006f00c002970200009382820273905230735000307350
            4030970100209381017e17110020130181106f00001e130101f823201100
            23222100232431002326410023285100232a6100232c7100232e81002320
            91022322a1022324b1022326c1022328d102232ae102232cf102232e0103
            2320110523222105232431052326410523285105232a6105232c7105232e
            8105232091072322a1072324b1072326c1072328d107232ae107232cf107
            f3221034232e510673252034f325103413060100ef00c04a73101534b722
            00009382028073a002308320010003214100832181000322c10083220101
            03234101832381010324c1018324010203254102832581020326c1028326
            010303274103832781030328c103832801040329410483298104032ac104
            832a0105032b4105832b8105032cc105832c0106032d4106832d8106032e
            c106832e0107032f4107832f81071301010873002030130101fe232e8100
            130401022326a4fe2324b4fe2322c4fe6f00c0028327c4fe03a707008327
            84fe23a0e7008327c4fe938747002326f4fe832784fe938747002324f4fe
            032784fe832744fee3f8e7fc130000000324c10113010102678000001301
            01fd2326810213040103232ea4fc232cb4fc8327c4fd2326f4fe6f008001
            8327c4fe23a007008327c4fe938747002326f4fe0327c4fe832784fde3f2
            e7fe130000000324c1021301010367800000130101fe232e1100232c8100
            13040102b72700609387079c2326f4fe8327c4fe2320f4fe232204fe2324
            04fe13860181b707008093850700b7270060138507a7eff01ff11386018f
            93850181b7270060138507a8eff0dfef938501901385018feff01ff59385
            019313850190eff05ff4930704fe9385070013051000ef10805613000000
            8320c101032481011301010267800000130101ff23268100130401011300
            00000324c1001301010167800000130101fd2326810213040103232ea4fc
            f32740f12326f4fe8327c4fe2324f4fe370700408327c4fd93d757008326
            84fe93965600b386f600b717000093870780b387f60093972700b307f700
            83a707002322f4fe8327c4fd93f7f70113071000b317f70093c7f7ff0327
            44feb377f7002322f4fe370700408327c4fd93d75700832684fe93965600
            b386f600b717000093870780b387f60093972700b307f700032744fe23a0
            e700130000000324c1021301010367800000130101fe232e810013040102
            f32740f12326f4fe8327c4fe2324f4fe37070040832784fe938707209397
            c700b307f70083a74700138507000324c1011301010267800000130101fd
            2326810213040103232ea4fcf32740f12326f4fe8327c4fe2324f4fe3707
            0040832784fe938707209397c700b307f7000327c4fd23a2e70013000000
            0324c1021301010367800000130101fe232e810013040102f36704302326
            f4fe130000000324c1011301010267800000130101fe232e1100232c8100
            1304010293070008f3b747302326f4feef00002137070044b7c70000b307
            f70003a8c7ff83a787ff83a5018f03a6418f37050044732740f12324e4fe
            832884feb386b700138306003333f3003307c800b307e300138707009387
            06001308070037170000130707803387e800131737003307e5002320f700
            2322070193070008f3a747302322f4fe130000008320c101032481011301
            010267800000130101fe232e1100232c810013040102eff05fe92326a4fe
            a30504feb70700800327c4fe1317270093870701b307f70083a70700e780
            070093070500a305f4fe0325c4feeff05fea0347b4fe930710006316f700
            0325c4feeff05fd9130000008320c1010324810113010102678000001301
            01ff232611002324810013040101ef00c00eb707004423a0070013000000
            8320c100032481001301010167800000130101fe232e1100232c81001304
            01022326a4fe2324b4fe8327c4fe63d207020327c4feb707008093c7f7ff
            3377f7009307b0006316f700eff09ff26f0080078327c4fe63d207020327
            c4feb707008093c7f7ff3377f700930770006316f700eff09fe56f000005
            8327c4fe63d207020327c4feb707008093c7f7ff3377f700930730006316
            f700eff09ff46f00800213065000b72700609385879c13051000ef108033
            8327c4fe9387170013850700ef000041832784fe138507008320c1010324
            81011301010267800000130101ff2326110023248100130401011305a000
            ef00003e130101ff2326810013040101130000000324c100130101016780
            0000130101ff232681001304010193070000138507000324c10013010101
            67800000130101ff232681001304010193070000138507000324c1001301
            010167800000130101ff232681001304010193070000138507000324c100
            1301010167800000130101ff232681001304010193070000138507000324
            c1001301010167800000130101ff23268100130401019307000013850700
            0324c1001301010167800000130101ff2326810013040101930700001385
            07000324c1001301010167800000130101ff232681001304010193070000
            138507000324c1001301010167800000130101ff23268100130401019307
            0000138507000324c1001301010167800000130101ff2326810013040101
            93070000138507000324c1001301010167800000130101ff232681001304
            010193070000138507000324c1001301010167800000130101ff23268100
            1304010193070000138507000324c1001301010167800000130101ff2326
            81001304010193070000138507000324c1001301010167800000130101ff
            232681001304010193070000138507000324c10013010101678000001301
            01ff232681001304010193070000138507000324c1001301010167800000
            130101ff232681001304010193070000138507000324c100130101016780
            0000130101ff232681001304010193070000138507000324c10013010101
            67800000130101ff232681001304010193070000138507000324c1001301
            010167800000130101ff232681001304010193070000138507000324c100
            1301010167800000130101ff232681001304010193070000138507000324
            c1001301010167800000130101ff23268100130401019307000013850700
            0324c1001301010167800000130101ff2326810013040101930700001385
            07000324c1001301010167800000130101ff232681001304010193070000
            138507000324c1001301010167800000130101ff23268100130401019307
            0000138507000324c1001301010167800000130101ff2326810013040101
            93070000138507000324c1001301010167800000130101ff232681001304
            010193070000138507000324c1001301010167800000130101ff23268100
            1304010193070000138507000324c1001301010167800000130101ff2326
            81001304010193070000138507000324c1001301010167800000130101ff
            232681001304010193070000138507000324c10013010101678000001301
            01ff232681001304010193070000138507000324c1001301010167800000
            130101ff232681001304010193070000138507000324c100130101016780
            0000130101fe232e8100130401022326a4fe6f000000130101fe232e8100
            130401022326a4fe0327c4fe23a0e1909307f0ff138507000324c1011301
            010267800000130101fe232e1100232c8100130401022326a4fe2324b4fe
            2322c4fe13059000eff05ffb93070500138507008320c101032481011301
            010267800000130101ff232611002324810013040101eff09f9413000000
            8320c1000324810013010101678000002320b50067800000032505006780
            0000138e0600331ebe00337ece00032305009303060093c3f3ff33737300
            3363c3012320650067800000032505003375c5003355b500678000002310
            b500678000000315050067800000138e0600331ebe00337ece0003130500
            9303060093c3f3ff337373003363c3012310650067800000031505003375
            c5003355b500678000002300b500678000000305050067800000138e0600
            331ebe00337ece00030305009303060093c3f3ff337373003363c3012300
            650067800000030505003375c5003355b50067800000130101fd23261102
            2324810213040103232ea4fc232cb4fc9307060013870600231bf4fc9307
            0700a30af4fc8327c4fd638a070c034754fd9307700063e4e70c035764fd
            b7270000637ef70a832784fd13878700835764fd93f7f70f938507001305
            0700eff05ff5832784fd9386c700034754fd835764fd93d7574093f7877f
            b367f7009385070013850600eff0dff28327c4fd032784fd23a0e7008327
            c4fd83a707009387070113850700eff05ff19307050093f72700a307f4fe
            6f0080038327c4fd83a707009387470013850700eff01fef8327c4fd83a7
            07009387070113850700eff0dfed9307050093f72700a307f4fe8347f4fe
            e39407fc8327c4fd23820700130000008320c10203248102130101036780
            0000130101fd232611022324810213040103232ea4fc232cb4fc232ac4fc
            8327c4fd63800708832784fd638c0706832744fd63880706232604fe6f00
            c0058327c4fd83a707009387070113850700eff0dfe59307050093f71700
            a305f4fe8347b4fee38e07fc8327c4fd83a60700032784fd8327c4feb307
            f70083c707009385070013850600eff0dfe18327c4fe938717002326f4fe
            0327c4fe832744fde360f7fa130000008320c10203248102130101036780
            0000130101fd23261102232481022322910213040103232ea4fc232cb4fc
            232ac4fc232404fe8327c4fd6386070e832784fd6382070e832744fd638e
            070c232404fe8327c4fd83a707009387070113850700eff05fda93070500
            a303f4fe8327c4fd03c74700834774feb367f70013f7f70f8327c4fd2382
            e700834774fe93f72700a307f4fe6f00c0078327c4fd83a7070093864700
            032784fd832784feb304f70013850600eff01fd5930705002380f4008327
            84fe938717002324f4fe8327c4fd83a707009387070113850700eff09fd2
            93070500a303f4fe8327c4fd03c74700834774feb367f70013f7f70f8327
            c4fd2382e700834774fe93f72700a307f4fe8347f4fe63880700032784fe
            832744fde36cf7f6832784fe138507008320c10203248102832441021301
            010367800000130101fd232611022324810213040103232ea4fc232cb4fc
            8327c4fd63800708832784fd638c0706232604fe6f00c0058327c4fd83a7
            07009387070113850700eff05fc89307050093f71700a305f4fe8347b4fe
            e38e07fc8327c4fd83a60700032784fd8327c4feb307f70083c707009385
            070013850600eff05fc48327c4fe938717002326f4fe032784fd8327c4fe
            b307f70083c70700e39c07f8130000008320c10203248102130101036780
            0000130101fd2326110223248102130401032326a4fe2324b4fe93070600
            2320d4fe232ee4fca303f4fe8327c4fe032784fe23a0e700832784fe9387
            870093060000130620009305100013850700eff01fb4832784fe93878700
            93060000130610009305000013850700eff05fb2832784fe938707019305
            100013850700eff01fb0832784fe9387c700832504fe13850700eff0dfae
            8325c4fd032584feeff01fae834774fe63920702832784fe938787009306
            0000130640009305200013850700eff0dfac6f000002832784fe93878700
            93061000130640009305200013850700eff0dfaa130000008320c1020324
            81021301010367800000130101fe232e1100232c8100130401022326a4fe
            8327c4fe83a707009387870093061000130610009305000013850700eff0
            5fa6130000008320c101032481011301010267800000130101fe232e1100
            232c8100130401022326a4fe8327c4fe83a7070093878700930610001306
            20009305100013850700eff0dfa1130000008320c1010324810113010102
            67800000130101fe232e1100232c8100130401022326a4fe8327c4fe83a7
            0700938707019305100013850700eff0df9c130000008320c10103248101
            1301010267800000130101fd232611022324810213040103232ea4fc232c
            b4fc232ac4fca30704fe832784fd2324f4fe8327c4fd032784fd23a0e700
            8327c4fd032744fd23a2e700a30704fe832784fd2324f4fe6f0080029305
            0000032584feeff0df9e832784fe938747002324f4fe8347f4fe93871700
            a307f4fe0347f4fe9307f001e3fae7fc8327c4fd83a7470013071000638a
            e7021307100063e4e706130720006384e7006f00000c8327c4fd83a70700
            938707089305f0ff13850700eff0df8f6f00400a8327c4fd83a707001387
            0708b70701009385f7ff13050700eff05f928327c4fd83a7070013874708
            b70701009385f7ff13050700eff09f906f0080068327c4fd83a707009387
            07089305f00f13850700eff05f938327c4fd83a70700938747089305f00f
            13850700eff0df918327c4fd83a70700938787089305f00f13850700eff0
            5f908327c4fd83a707009387c7089305f00f13850700eff0df8e13000000
            130000008320c102032481021301010367800000130101fe232e1100232c
            8100130401022326a4fe2324b4fe8327c4fe83a7470013071000638ae702
            1307100063eee706130720006384e7006f0000108327c4fe83a707009387
            070a832584fe13850700eff00fff6f00400e8327c4fe83a707009387070a
            032784fe13170701135707019305070013850700eff01f818327c4fe83a7
            07001387470a832784fe93d707019397070193d707019385070013050700
            eff08ffe6f0040098327c4fe83a707009387070a032784fe1377f70f9305
            070013850700eff0df808327c4fe83a707001387470a832784fe93d78700
            93f7f70f9385070013050700eff08ffe8327c4fe83a707001387870a8327
            84fe93d7070193f7f70f9385070013050700eff04ffc8327c4fe83a70700
            1387c70a832784fe93d7870193f7f70f9385070013050700eff00ffa1300
            0000130000008320c101032481011301010267800000130101fd23261102
            2324810213040103232ea4fc232604fe8327c4fd83a7470013071000638a
            e7021307100063e2e708130720006384e7006f0080128327c4fd83a70700
            9387070913850700eff00feb2326a4fe6f00c0108327c4fd83a707009387
            070913850700eff0cfed93070500138707008327c4feb3e7e7002326f4fe
            8327c4fd83a707009387470913850700eff04feb93070500939707011387
            07008327c4feb3e7e7002326f4fe6f00400b8327c4fd83a7070093870709
            13850700eff0cfec93070500138707008327c4feb3e7e7002326f4fe8327
            c4fd83a707009387470913850700eff04fea930705009397870013870700
            8327c4feb3e7e7002326f4fe8327c4fd83a707009387870913850700eff0
            8fe79307050093970701138707008327c4feb3e7e7002326f4fe8327c4fd
            83a707009387c70913850700eff0cfe49307050093978701138707008327
            c4feb3e7e7002326f4fe130000008327c4fe138507008320c10203248102
            1301010367800000130101fe232e810013040102f32740f12324f4fe8327
            84fe2322f4fe232604fe6f00c00337070040832744fe939657008327c4fe
            b386f600b717000093870780b387f60093972700b307f70023a007008327
            c4fe938717002326f4fe8327c4fee38207fc232604fe6f00400237070040
            8327c4fe93972700b307f70023a007008327c4fe938717002326f4fe0327
            c4fe9307e001e3fce7fc37070040832744fe938707209397c700b307f700
            23a00700b717000093870780f3a747302320f4fe130000000324c1011301
            010267800000130101fd2326810213040103232ea4fcf32740f12326f4fe
            8327c4fe2324f4fe370700408327c4fd93d75700832684fe93965600b386
            f600b717000093870780b387f60093972700b307f70083a707002322f4fe
            8327c4fd93f7f70113071000b317f700032744feb367f7002322f4fe3707
            00408327c4fd93d75700832684fe93965600b386f600b717000093870780
            b387f60093972700b307f700032744fe23a0e700130000000324c1021301
            010367800000130101fe232e8100130401022326a4fe2324b4fe37070040
            8327c4fe93972700b307f700032784fe23a0e700130000000324c1011301
            010267800000130101fe232e1100232c8100130401021385c191eff05fcb
            2326a4fe8327c4fe93c7f7ff93f7070f2324f4fe83a741921397170023a2
            e19203a741929307400063f6e7001307100023a2e19283a74192032784fe
            b367f7002324f4fe832584fe13858190eff09fb113854190eff0df959307
            0000138507008320c101032481011301010267800000130101ff23261100
            232481001304010183a741921387170023a2e19283a74192939787009385
            070013858190eff09fac13850191eff0df9093070000138507008320c100
            032481001301010167800000130101fd232611022324810213040103232e
            a4fc232cb4fceff01fd513062000b72500701385c191eff09f9013062000
            b755007013858190eff09f8f9306100013069025b715007013854191eff0
            0fb7b707008083a707009385070013854191eff08fe5b747010013878743
            9306900013060000b735007013854190eff0cfeeb7a70000138707419306
            800013060000b745007013850191eff00fed930510001305e001eff09fe4
            930510001305f001eff0dfe31305e001eff01fd81305f001eff09fd71385
            4190eff00ffe13850191eff08ffdeff08f9e1307100023a2e19213854190
            eff0cff713850191eff04ff71385c191eff0dfaf2326a4fe9307a4fe1306
            10009385070013854191eff0cfc793070500a305f4fe8347b4fe638c0700
            9307a4fe130610009385070013854191eff04fba8327c4fe93c7f7ff13f7
            070f83a74192b367f7009385070013858190eff05f956ff0dff997e7ff1f
            9387876b93060600138605009305050003a507006f004000130101ff2324
            81001304050013850500930506001386060023a0019023261100eff0cf8e
            9307f0ff631af5009387019083a70700638407002320f4008320c1000324
            8100130101016780000000000000000000000000000068656c6c6f000000
            747261700a0000000d0a090909436f726554494d455220616e6420657874
            65726e616c20496e74657272757074204578616d706c650909090d0a0d0a
            4f62736572766520746865204c45447320626c696e6b696e67206f6e2074
            686520626f6172642e20546865204c4544207061747465726e206368616e
            6765732065766572792074696d6520612074696d657220696e7465727275
            7074206f63637572730d0a00000000000000d01900609000008000000000
            000000007406006094060060b4060060d4060060f4060060140700603407
            0060540700607407006094070060b4070060d4070060f407006014080060
            34080060540800607408006094080060b4080060d4080060f40800601409
            006034090060540900607409006094090060b4090060d4090060f4090060
            140a00601c170060a4170060000000000000000000000000000000000000
            000000000000000000000000000000000000000000000000000000000000
            000000000000000000000000000000000000000000000000000000000000
            000000000000000000000000000000000000
            <crc>
                6b5e
            </crc>
        </region>
        <region name="M3_BOOT" address="0x078000" retrieveAddressFromFile="false" size="3456" format="HEX" type="Data Storage" wordSize="8" numberWords="3456" memFile="C:\Users\ciaran.lappin\Downloads\M2S025-Creative-Board-master\Modify_The_FPGA_Design\MIV_RV32IMA_L1_AHB_BaseDesign\hex\M3-Disable_M2S025-FutureCreativeBoard-DDR.hex" memType="INTELHEX" memFileTimeStamp="" clientType="public" program="true">
            <read_protect/>
            00000120910100007f030000810300008303000085030000870300000000
            0000000000000000000000000000890300008b030000000000008d030000
            8f03000091030000930300009503000097030000990300009b0300009d03
            00009f030000a1030000a3030000a5030000a7030000a9030000ab030000
            ad030000af030000b1030000b3030000b5030000b7030000b9030000bb03
            0000bd030000bf030000c1030000c3030000c5030000c7030000c9030000
            cb030000cd030000cf030000d1030000d3030000d5030000d7030000d903
            0000db030000dd030000df030000e1030000e3030000e5030000e7030000
            e9030000eb030000ed030000ef030000f1030000f3030000f5030000f703
            0000f9030000fb030000fd030000ff030000010400000304000005040000
            07040000090400000b0400000d0400000f04000011040000130400001504
            000017040000190400001b0400001d0400001f0400002104000023040000
            2504000027040000290400002b0400002d0400002f040000310400003304
            000000000000000000004ff0000bdff8be020068dff8b612096801f00301
            00f01c00142801d14bf0020b002901d04bf0010bbbf1000f05d0a748a749
            dff8722200f09ff8a64880470bf0020abaf1000f0cd0dff86e02dff86e12
            02680b680fb44ff000024ff0ff0302600b609d4800220123022808d1dff8
            3e120a60dff842120a60dff836120b60012808d1dff82e120a60dff82a12
            0a60dff81e120b609148002809d191489149924a00f032f891489249924a
            00f02df892489249934a00f028f892489349dff8e62100f05af8bbf1000f
            12d090489049dff8da2100f051f80bf0020abaf1000f07d00fbc02600b60
            00bfaff30080aff30080dff820020ff2030e00474ff000004ff00001dff8
            14f2fee72de9f841884225d0b2eb010200d5fee740ea010313f0030302d0
            00f01df819e04ff0000390461211f7d09a421cbff0c8f0c103f10103f8d1
            08f00f08b8f1000f08d004780c7000f1010001f10101b8f10108f6d1bde8
            f88108b54ff0000303780b7000f1010001f10101013af7d108bd884237d0
            00f00306002e14d04ff00405a5eb06044ff0080707fb06f8914669fa08f9
            002c07d080f8009069fa07f900f10100013cf5e74ff000060f46091a8846
            0911914614461546b14206d018bfa0e8340206f10106b142f8d108f00f08
            b8f1000f07d002704fea322200f10100b8f10108f4e77047fee7fee7fee7
            fee7fee7fee7fee7fee7fee7fee7fee7fee7fee7fee7fee7fee7fee7fee7
            fee7fee7fee7fee7fee7fee7fee7fee7fee7fee7fee7fee7fee7fee7fee7
            fee7fee7fee7fee7fee7fee7fee7fee7fee7fee7fee7fee7fee7fee7fee7
            fee7fee7fee7fee7fee7fee7fee7fee7fee7fee7fee7fee7fee7fee7fee7
            fee7fee7fee7fee7fee7fee7fee7fee7fee7fee7fee7fee7fee7fee7fee7
            fee7fee7fee7fee7fee7fee7fee7fee7fee7fee7fee7fee7fee770470000
            0000a2a2a2a2008003400880034010800340308003403480034038800340
            18080240000000f0002000000120ad040000000000000100000000000060
            0000000090010000c0060060c00600005009000050090060000000203004
            002030040020500400205004002000f00020bd070000790700004ff60202
            38b53a4bd3f84c11914262d0384a536943f400735361354b996861b1fff7
            b2ff324a936c23f480339364324b1a6842f003021a6049e0304b30481b68
            30f8112043f82120013139292c4af7d102f1700003f5077103f5487430f8
            025f41f8045ba142f9d1b2f8f410c3f80014b2f8f610c3f80414b2f8f810
            c3f80814b2f8fa10c3f80c14b2f8fc10c3f81014b2f8fe10c3f81414b2f8
            0011c3f81814b2f80211c3f81c14b2f80411c3f84014b2f80611b2f80821
            c3f84414c3f8482401221a60d3f8e420002afbd0a8e75a68d207fcd538bd
            d3f8982042f48072c3f89820d3f8982022f08062c3f898208fe700800340
            00ed00e000200240bc060000b00500000000000008119002020000000100
            9f0900003333ffff7777ff0f010000420800520944000000000080026500
            e5010200280078012300330d040000000033000000000c04000000000000
            020000008020f8800700f880070000020000000004000300400000000000
            000000000903010000000000000080000000000003000000000000000000
            00000b000000000000000000800004200001080000000000000000000000
            010000000000000000000000504001051450000008001800000005000000
            000000000000000000000000000050000105105000000000000000000000
            000043000000030001000100000000000000010000000000000000000000
            00000000000000000000000000000008024010b5054c237833b9044b13b1
            0448aff300800123237010bd300400200000000020090000084b10b51bb1
            08490848aff300800848036803b910bd074b002bfbd0bde81040184700bf
            0000000034040020200900000000002000000000144b10b59a6c144c42f4
            80129a649a6c012042f0f0729a6400221357013203f01f015b099b0003f1
            604300fa01f103f56143202ac3f88010c3f88011edd1054b9a6c22f0f072
            9a649a6c22f480129a6410bd00bf00800340f808000007b5fff7cfff0d4b
            4ff05532c3f8882072b630bf4ff0aa32c3f88820084a1168c9090191019a
            1ab1019a013a0192f9e7d3f88820d243c3f88820f2e70030014004000020
            70b50f4e0f4d761bb61018bf002405d0013455f8043b9847a642f9d10a4e
            0b4d00f0a0f8761bb61018bf002406d0013455f8043b9847a642f9d170bd
            70bd00bf38090000380900004009000038090000024b13b1024800f005b8
            7047000000002d080000002301461a46184600f014b838b5074d074c2c1b
            a41005d0013c55f8043d9847002cf9d1bde8384000f070b8440900004009
            00002de9f047254c064625688846d5f8484192469946c4b360681f2817dc
            411c76b104eb8003c3f888a0d4f88851012282401543022ec4f88851c3f8
            08911ed0831c6160002044f82380bde8f087144b03b34ff4c870aff30080
            0446d0b1d5f84831002784e888003846c5f848410121c4f88871c4f88c71
            002ee1d0d1e7d4f88c311a43c4f88c21dae705f5a674c5f84841c1e74ff0
            ff30bde8f08700bf1c0900000000000032333435363738393a3b3c3d3e3f
            404142434445464748494a4b4c4d4e4f50514300000008000020f8b500bf
            f8bc08bc9e467047f8b500bff8bc08bc9e4670470d080000e5060000c106
            000000000000000000000000000000000000c07af20400000000f4020020
            5c030020c403002000000000000000000000000000000000000000000000
            000000000000000000000000000018090000000000000000000000000000
            000000000000000000000000000000000000000000000000000000000000
            000000000000000000000000000000000000000000000000000000000000
            000000000000000000000000000000000000000000000000000000000000
            0000000000000000000001000000000000000e33cdab34126de6ecde0500
            0b0000000000000000000000000000000000000000000000000000000000
            000000000000000000000000000000000000000000000000000000000000
            000000000000000000000000000000000000000000000000000000000000
            000000000000000000000000000000000000000000000000000000000000
            000000000000000000000000000000000000000000000000000000000000
            000000000000000000000000000000000000000000000000000000000000
            000000000000000000000000000000000000000000000000000000000000
            000000000000000000000000000000000000000000000000000000000000
            000000000000000000000000000000000000000000000000000000000000
            000000000000000000000000000000000000000000000000000000000000
            000000000000000000000000000000000000000000000000000000000000
            000000000000000000000000000000000000000000000000000000000000
            000000000000000000000000000000000000000000000000000000000000
            000000000000000000000000000000000000000000000000000000000000
            000000000000000000000000000000000000000000000000000000000000
            000000000000000000000000000000000000000000000000000000000000
            000000000000000000000000000000000000000000000000000000000000
            000000000000000000000000000000000000000000000000000000000000
            000000000000000000000000000000000000000000000000000000000000
            000000000000000000000000000000000000000000000000000000000000
            000000000000000000000000000000000000000000000000000000000000
            000000000000000000000000000000000000000000000000000000000000
            000000000000000000000000000000000000000000000000000000000000
            000000000000000000000000000000000000000000000000000000000000
            000000000000000000000000000000000000000000000000000000000000
            000000000000000000000000000000000000000000000000000000000000
            000000000000000000000000000000000000000000000000000000000000
            000000000000000000000000000000000000000000000000000000000000
            000000000000000000000000000000000000000000000000000000000000
            000000000000
            <crc>
                2dfd
            </crc>
        </region>
    </nvm>
</Actel_Data_File>
